Wall time,Relative time (s),Step,Value
1585597392,0,117,6.533592224
1585597401,9,236,2.395288944
1585597409,17,342,2.239300489
1585597417,25,447,2.102248907
1585597425,33,554,2.131556034
1585597433,41,661,1.985476851
1585597441,49,766,1.941848636
1585597449,57,874,1.933943152
1585597457,65,979,1.915854216
1585597465,73,1086,1.801394939
1585597472,80,1191,1.89711833
1585597480,88,1298,2.077250004
1585597488,96,1402,1.830359578
1585597496,104,1507,1.881569982
1585597504,112,1611,1.826563358
1585597511,119,1718,1.842051268
1585597520,128,1825,1.774596572
1585597528,136,1932,1.810662031
1585597545,153,2123,1.697478533
1585597553,161,2231,1.681557417
1585597561,169,2338,1.677726507
1585597569,177,2444,1.763587475
1585597577,185,2548,1.79682827
1585597585,193,2653,1.778447628
1585597593,201,2759,1.603165627
1585597601,209,2863,1.74677515
1585597609,217,2969,1.493544698
1585597617,225,3076,1.616722226
1585597625,233,3181,1.555632353
1585597633,241,3286,1.580807328
1585597641,249,3393,1.38931942
1585597650,258,3503,1.632564306
1585597658,266,3611,1.429154754
1585597666,274,3717,1.679012418
1585597673,281,3823,1.488950491
1585597681,289,3929,1.483921051
1585597699,307,4127,1.25332284
1585597707,315,4231,1.555595636
1585597715,323,4336,1.558131933
1585597723,331,4442,1.375955582
1585597730,338,4548,1.254785299
1585597738,346,4655,1.319057226
1585597746,354,4760,1.242239714
1585597754,362,4866,1.306318998
1585597762,370,4974,1.428126574
1585597770,378,5080,1.356484056
1585597778,386,5185,1.313652039
1585597786,394,5294,1.081951022
1585597795,403,5400,1.145769715
1585597803,411,5507,1.284238338
1585597811,419,5613,1.178996682
1585597819,427,5720,1.145660162
1585597827,435,5823,1.281360269
1585597835,443,5927,1.004135728
1585597853,461,6128,0.887051642
1585597862,470,6235,0.885688722
1585597870,478,6341,1.018297434
1585597878,486,6448,1.032829762
1585597886,494,6553,0.903895974
1585597894,502,6661,1.048118114
1585597902,510,6768,0.865542412
1585597911,519,6877,0.986353874
1585597920,528,6986,1.010227442
1585597928,536,7092,0.957077861
1585597936,544,7198,1.047810316
1585597944,552,7307,1.165438414
1585597953,561,7415,0.975570738
1585597961,569,7522,0.817612469
1585597969,577,7626,0.813429475
1585597977,585,7734,0.811053514
1585597985,593,7843,0.871149421
1585597994,602,7951,0.560553432
1585598011,619,8133,0.8038674
1585598019,627,8241,0.858039618
1585598027,635,8348,0.847864509
1585598035,643,8456,0.849593997
1585598043,651,8561,0.987093568
1585598051,659,8667,0.667512774
1585598059,667,8773,0.471009284
1585598067,675,8878,0.768918097
1585598075,683,8984,0.699687243
1585598083,691,9090,0.636496603
1585598090,698,9195,0.711475134
1585598098,706,9302,0.599897623
1585598106,714,9408,0.721560538
1585598114,722,9513,0.805199742
1585598122,730,9618,0.522593856
1585598129,737,9723,0.817441285
1585598137,745,9829,0.600125015
1585598145,753,9937,0.509285212
1585598163,771,10135,0.542402148
1585598172,780,10242,0.659348488
1585598180,788,10347,0.479750276
1585598188,796,10455,0.617994249
1585598197,805,10560,0.50241375
1585598205,813,10666,0.432100296
1585598213,821,10772,0.552036643
1585598221,829,10878,0.546027839
1585598229,837,10988,0.415031374
1585598237,845,11093,0.565346122
1585598245,853,11201,0.470662296
1585598254,862,11308,0.398693532
1585598262,870,11413,0.560617447
1585598270,878,11519,0.47053051
1585598279,887,11625,0.433511972
1585598287,895,11730,0.486978173
1585598295,903,11835,0.384692729
1585598303,911,11941,0.479398578
1585598322,930,12134,0.472154319
1585598330,938,12241,0.476377606
1585598338,946,12345,0.369523734
1585598346,954,12451,0.518679023
1585598354,962,12558,0.271861106
1585598362,970,12665,0.408691198
1585598370,978,12771,0.455713928
1585598378,986,12877,0.397197396
1585598386,994,12982,0.446680844
1585598394,1002,13088,0.503142893
1585598403,1011,13196,0.36422199
1585598411,1019,13304,0.437885046
1585598419,1027,13410,0.5238204
1585598427,1035,13516,0.334122777
1585598435,1043,13623,0.432041287
1585598443,1051,13730,0.41356343
1585598451,1059,13835,0.5029037
1585598460,1068,13941,0.479494005
1585598479,1087,14149,0.478963703
1585598487,1095,14255,0.358645529
1585598495,1103,14362,0.347306609
1585598503,1111,14467,0.526638985
1585598511,1119,14573,0.369036078
1585598519,1127,14680,0.404943526
1585598527,1135,14785,0.365249634
1585598536,1144,14890,0.441595495
1585598544,1152,14996,0.366471678
1585598552,1160,15103,0.543524027
1585598560,1168,15209,0.43238613
1585598568,1176,15318,0.336886644
1585598576,1184,15423,0.371956587
1585598584,1192,15529,0.378858626
1585598592,1200,15636,0.327609658
1585598600,1208,15742,0.319200516
1585598609,1217,15849,0.301416546
1585598616,1224,15954,0.368196338
1585598635,1243,16151,0.342588574
1585598643,1251,16258,0.339081734
1585598651,1259,16364,0.422321409
1585598659,1267,16473,0.51774615
1585598668,1276,16580,0.413413942
1585598676,1284,16688,0.328325838
1585598684,1292,16794,0.227329105
1585598692,1300,16901,0.242043674
1585598700,1308,17006,0.235195994
1585598708,1316,17112,0.361998916
1585598717,1325,17219,0.268046677
1585598725,1333,17325,0.412353367
1585598733,1341,17431,0.291987389
1585598741,1349,17536,0.260087252
1585598749,1357,17644,0.181899354
1585598757,1365,17751,0.263593823
1585598765,1373,17858,0.372386843
1585598773,1381,17963,0.340162635
1585598790,1398,18149,0.21271199
1585598798,1406,18256,0.294141531
1585598806,1414,18361,0.264857441
1585598814,1422,18469,0.25386712
1585598823,1431,18577,0.321836323
1585598831,1439,18686,0.326271236
1585598839,1447,18793,0.413442075
1585598847,1455,18897,0.253808558
1585598855,1463,19003,0.276554525
1585598863,1471,19110,0.229863614
1585598871,1479,19214,0.371857107
1585598879,1487,19319,0.363192439
1585598887,1495,19423,0.282054067
1585598895,1503,19529,0.309913099
1585598903,1511,19636,0.233407497
1585598911,1519,19743,0.243017435
1585598919,1527,19850,0.366832256
1585598928,1536,19958,0.233713374
1585598945,1553,20150,0.31994611
1585598953,1561,20255,0.205573082
1585598962,1570,20361,0.147058785
1585598970,1578,20466,0.137480006
1585598978,1586,20571,0.211966798
1585598986,1594,20678,0.529735565
1585598994,1602,20785,0.219467133
1585599002,1610,20891,0.220414191
1585599010,1618,20996,0.14428781
1585599018,1626,21103,0.26293385
1585599027,1635,21212,0.247104764
1585599035,1643,21319,0.316184103
1585599043,1651,21424,0.256281614
1585599051,1659,21530,0.154901892
1585599060,1668,21639,0.24830009
1585599068,1676,21745,0.158489674
1585599076,1684,21851,0.175766394
1585599084,1692,21958,0.200686961
1585599102,1710,22154,0.278347194
1585599110,1718,22260,0.327814877
1585599118,1726,22365,0.253234953
1585599126,1734,22473,0.174449354
1585599135,1743,22582,0.273993194
1585599143,1751,22687,0.081106067
1585599150,1758,22791,0.307703197
1585599158,1766,22899,0.12337026
1585599167,1775,23004,0.214809269
1585599175,1783,23111,0.227622136
1585599183,1791,23218,0.18056874
1585599191,1799,23323,0.236135304
1585599199,1807,23431,0.191298068
1585599207,1815,23538,0.237938881
1585599215,1823,23641,0.163618624
1585599223,1831,23749,0.210393727
1585599231,1839,23854,0.199098796
1585599238,1846,23957,0.172440082
1585599257,1865,24161,0.121579498
1585599265,1873,24267,0.34664765
1585599273,1881,24372,0.199314713
1585599281,1889,24478,0.236121446
1585599289,1897,24584,0.09320499
1585599298,1906,24691,0.190824419
1585599306,1914,24800,0.481379271
1585599314,1922,24908,0.184646845
1585599323,1931,25014,0.100987628
1585599331,1939,25121,0.181583509
1585599339,1947,25227,0.273870915
1585599347,1955,25332,0.127935216
1585599355,1963,25438,0.156796694
1585599363,1971,25543,0.328818321
1585599371,1979,25649,0.110351652
1585599379,1987,25756,0.25460881
1585599387,1995,25862,0.194011301
1585599395,2003,25967,0.15708068
1585599414,2022,26170,0.147980765
1585599422,2030,26275,0.304367006
1585599430,2038,26380,0.161114722
1585599438,2046,26486,0.217998818
1585599445,2053,26591,0.273639947
1585599453,2061,26696,0.095747605
1585599462,2070,26804,0.084057286
1585599470,2078,26911,0.175075576
1585599478,2086,27019,0.162255466
1585599487,2095,27126,0.220678836
1585599495,2103,27234,0.12857528
1585599503,2111,27339,0.15147239
1585599510,2118,27445,0.148916453
1585599519,2127,27552,0.125642806
1585599527,2135,27657,0.109025858
1585599535,2143,27765,0.151085317
1585599543,2151,27873,0.178117707
1585599551,2159,27979,0.082379848
1585599569,2177,28167,0.130129471
1585599577,2185,28274,0.208226189
1585599585,2193,28378,0.084408924
1585599593,2201,28487,0.153961748
1585599602,2210,28594,0.116143987
1585599610,2218,28700,0.196073398
1585599619,2227,28807,0.143095374
1585599627,2235,28914,0.271244764
1585599635,2243,29021,0.172572985
1585599643,2251,29129,0.093910314
1585599651,2259,29235,0.217766136
1585599659,2267,29341,0.106810883
1585599667,2275,29448,0.13096343
1585599675,2283,29555,0.132249594
1585599683,2291,29662,0.231675744
1585599691,2299,29770,0.153721079
1585599699,2307,29877,0.17063871
1585599708,2316,29986,0.146922782
1585599725,2333,30173,0.147192091
1585599733,2341,30278,0.194773838
1585599741,2349,30383,0.064484358
1585599749,2357,30488,0.129835069
1585599757,2365,30594,0.13378495
1585599765,2373,30698,0.115263991
1585599773,2381,30804,0.168025404
1585599782,2390,30911,0.126013383
1585599790,2398,31017,0.095525831
1585599798,2406,31124,0.133857325
1585599806,2414,31230,0.134858817
1585599814,2422,31337,0.164815158
1585599823,2431,31443,0.124195471
1585599831,2439,31548,0.160739422
1585599839,2447,31654,0.11897473
1585599847,2455,31758,0.20613268
1585599855,2463,31863,0.119383693
1585599864,2472,31970,0.056467537
1585599882,2490,32162,0.07043907
1585599890,2498,32269,0.084991388
1585599898,2506,32377,0.056927215
1585599906,2514,32483,0.053375393
1585599914,2522,32588,0.058295988
1585599922,2530,32696,0.060731106
1585599930,2538,32803,0.05603873
1585599939,2547,32910,0.069222033
1585599947,2555,33017,0.030634746
1585599955,2563,33125,0.028887495
1585599963,2571,33234,0.040963437
1585599972,2580,33341,0.025950465
1585599980,2588,33447,0.064947873
1585599988,2596,33553,0.02904699
1585599996,2604,33660,0.011638775
1585600004,2612,33768,0.05086663
1585600012,2620,33875,0.050336838
1585600021,2629,33979,0.077887043
1585600039,2647,34182,0.052482359
1585600048,2656,34290,0.012548325
1585600056,2664,34396,0.040499069
1585600064,2672,34502,0.033995844
1585600072,2680,34607,0.04275658
1585600080,2688,34714,0.042519141
1585600088,2696,34821,0.003776645
1585600096,2704,34926,0.024973031
1585600104,2712,35033,0.068266571
1585600112,2720,35137,0.02827679
1585600120,2728,35243,0.023816699
1585600128,2736,35348,0.018193902
1585600136,2744,35453,0.032943547
1585600144,2752,35560,0.026732294
1585600153,2761,35668,0.011328215
1585600161,2769,35774,0.057789396
1585600169,2777,35879,0.004545413
1585600177,2785,35983,0.006727606
1585600195,2803,36181,0.012289051
1585600203,2811,36286,0.009764743
1585600211,2819,36392,0.013055289
1585600219,2827,36497,0.014311158
1585600227,2835,36603,0.005106833
1585600235,2843,36709,0.009875409
1585600243,2851,36813,0.028472073
1585600251,2859,36919,0.012950649
1585600259,2867,37024,0.032692663
1585600267,2875,37129,0.027455689
1585600275,2883,37234,0.02123522
1585600283,2891,37344,0.013780531
1585600291,2899,37449,0.011790648
1585600299,2907,37556,0.018506916
1585600307,2915,37664,0.008918258
1585600316,2924,37772,0.021157576
1585600324,2932,37879,0.015629381
1585600332,2940,37986,0.018977514
1585600351,2959,38191,0.001914502
1585600359,2967,38299,0.019585144
1585600367,2975,38407,0.003853627
1585600375,2983,38513,0.013142213
1585600383,2991,38618,0.057705861
1585600391,2999,38723,0.01070288
1585600398,3006,38830,0.015722498
1585600406,3014,38935,0.008634675
1585600414,3022,39039,0.00864938
1585600422,3030,39146,0.016390856
1585600431,3039,39253,0.026539618
1585600439,3047,39360,0.027131116
1585600447,3055,39464,0.032519374
1585600454,3062,39571,0.006769989
1585600462,3070,39676,0.018050741
1585600470,3078,39782,0.017931793
1585600478,3086,39888,0.016846115
1585600486,3094,39994,0.008946639