Wall time,Relative time (s),Step,Value
1585077688,0,1,3.180912018
1585077738,50,101,2.581117153
1585077774,86,201,1.956908822
1585077813,125,301,1.726037264
1585077848,160,401,1.549905419
1585077884,196,501,1.469623327
1585077920,232,601,1.236738443
1585077954,266,701,1.134295464
1585077989,301,801,0.972562253
1585078023,335,901,0.925413132
1585078061,373,1001,0.907834888
1585078095,407,1101,0.704481125
1585078131,443,1201,0.579914987
1585078167,479,1301,0.626880169
1585078202,514,1401,0.591655731
1585078238,550,1501,0.557969034
1585078273,585,1601,0.473101228
1585078309,621,1701,0.429416478
1585078346,658,1801,0.445989817
1585078380,692,1901,0.397492707
1585078433,745,2001,0.383163393
1585078469,781,2101,0.383109987
1585078504,816,2201,0.405643463
1585078539,851,2301,0.412076145
1585078577,889,2401,0.274516463
1585078616,928,2501,0.316945136
1585078652,964,2601,0.263408005
1585078685,997,2701,0.286636621
1585078719,1031,2801,0.261217117
1585078754,1066,2901,0.242584452
1585078789,1101,3001,0.253610998
1585078825,1137,3101,0.231744379
1585078862,1174,3201,0.268872023
1585078898,1210,3301,0.25135237
1585078931,1243,3401,0.161379635
1585078966,1278,3501,0.19899334
1585079002,1314,3601,0.201726988
1585079036,1348,3701,0.194292083
1585079070,1382,3801,0.128635734
1585079105,1417,3901,0.18530935
1585079159,1471,4001,0.209234908
1585079195,1507,4101,0.183716133
1585079229,1541,4201,0.152407795
1585079265,1577,4301,0.13605243
1585079302,1614,4401,0.196411029
1585079340,1652,4501,0.195259392
1585079377,1689,4601,0.135181472
1585079412,1724,4701,0.129649997
1585079448,1760,4801,0.115229592
1585079485,1797,4901,0.100191034
1585079520,1832,5001,0.137864202
1585079555,1867,5101,0.152169809
1585079589,1901,5201,0.080440447
1585079624,1936,5301,0.094412386
1585079660,1972,5401,0.101345547
1585079697,2009,5501,0.126120552
1585079731,2043,5601,0.101697564
1585079765,2077,5701,0.092354923
1585079801,2113,5801,0.106288612
1585079835,2147,5901,0.07782051
1585079887,2199,6001,0.142377779
1585079923,2235,6101,0.095437042
1585079957,2269,6201,0.147876263
1585079992,2304,6301,0.106503211
1585080027,2339,6401,0.06852252
1585080061,2373,6501,0.076497644
1585080096,2408,6601,0.084710449
1585080132,2444,6701,0.097600639
1585080168,2480,6801,0.085849985
1585080203,2515,6901,0.059615389
1585080238,2550,7001,0.092825934
1585080273,2585,7101,0.080650009
1585080307,2619,7201,0.095909715
1585080342,2654,7301,0.04440935
1585080377,2689,7401,0.057706222
1585080412,2724,7501,0.099862516
1585080447,2759,7601,0.090214014
1585080484,2796,7701,0.082258627
1585080520,2832,7801,0.057720058
1585080554,2866,7901,0.064685851
1585080607,2919,8001,0.084492065
1585080642,2954,8101,0.087721825
1585080676,2988,8201,0.112446472
1585080711,3023,8301,0.07113494
1585080745,3057,8401,0.041689258
1585080779,3091,8501,0.079867825
1585080813,3125,8601,0.058332309
1585080850,3162,8701,0.046293426
1585080885,3197,8801,0.053565565
1585080920,3232,8901,0.07910572
1585080958,3270,9001,0.070269644
1585080992,3304,9101,0.048681088
1585081026,3338,9201,0.047936685
1585081059,3371,9301,0.036064796
1585081096,3408,9401,0.04834383
1585081131,3443,9501,0.076737516
1585081167,3479,9601,0.105022624
1585081203,3515,9701,0.062378239
1585081238,3550,9801,0.084760547
1585081275,3587,9901,0.055634715
1585081328,3640,10001,0.049091324
1585081362,3674,10101,0.042000953
1585081398,3710,10201,0.07898137
1585081433,3745,10301,0.061535493
1585081468,3780,10401,0.05614242
1585081503,3815,10501,0.079358697
1585081538,3850,10601,0.061575845
1585081573,3885,10701,0.039465364
1585081607,3919,10801,0.039678551
1585081641,3953,10901,0.06197758
1585081676,3988,11001,0.075692669
1585081711,4023,11101,0.071314938
1585081746,4058,11201,0.062209599
1585081781,4093,11301,0.07630147
1585081814,4126,11401,0.064218342
1585081849,4161,11501,0.087566167
1585081884,4196,11601,0.058366146
1585081918,4230,11701,0.065200686
1585081952,4264,11801,0.056981556
1585081986,4298,11901,0.095340773
1585082041,4353,12001,0.033591345
1585082074,4386,12101,0.053196192
1585082108,4420,12201,0.043258626
1585082143,4455,12301,0.061584536
1585082178,4490,12401,0.049221933
1585082213,4525,12501,0.039422248
1585082249,4561,12601,0.056178197
1585082283,4595,12701,0.080134287
1585082319,4631,12801,0.06864278
1585082354,4666,12901,0.060363732
1585082390,4702,13001,0.065618031
1585082427,4739,13101,0.064466849
1585082462,4774,13201,0.062365986
1585082499,4811,13301,0.078410104
1585082536,4848,13401,0.068495817
1585082573,4885,13501,0.053352654
1585082608,4920,13601,0.038426928
1585082643,4955,13701,0.03044343
1585082678,4990,13801,0.077374838
1585082713,5025,13901,0.027002905
1585082765,5077,14001,0.081504144
1585082801,5113,14101,0.053943336
1585082839,5151,14201,0.036571261
1585082873,5185,14301,0.072370186
1585082907,5219,14401,0.030608898
1585082942,5254,14501,0.019847009
1585082977,5289,14601,0.040990122
1585083013,5325,14701,0.03376475
1585083050,5362,14801,0.073629156
1585083085,5397,14901,0.026158046
1585083119,5431,15001,0.038854677
1585083153,5465,15101,0.029777385
1585083188,5500,15201,0.067153811
1585083223,5535,15301,0.033528969
1585083256,5568,15401,0.044040091
1585083291,5603,15501,0.052525904
1585083328,5640,15601,0.051560432
1585083364,5676,15701,0.068968028
1585083399,5711,15801,0.05823876
1585083433,5745,15901,0.027964719
1585083485,5797,16001,0.046774812
1585083521,5833,16101,0.06108788
1585083556,5868,16201,0.039373256
1585083590,5902,16301,0.019609395
1585083626,5938,16401,0.077471308
1585083660,5972,16501,0.028858559
1585083695,6007,16601,0.023074139
1585083730,6042,16701,0.070855647
1585083766,6078,16801,0.056568481
1585083800,6112,16901,0.044157904
1585083834,6146,17001,0.037990265
1585083869,6181,17101,0.043423757
1585083904,6216,17201,0.034221672
1585083938,6250,17301,0.018103078
1585083976,6288,17401,0.030729346
1585084011,6323,17501,0.041818146
1585084046,6358,17601,0.067290828
1585084081,6393,17701,0.048517827
1585084115,6427,17801,0.07748685
1585084149,6461,17901,0.041505903
1585084205,6517,18001,0.010990369
1585084239,6551,18101,0.030249957
1585084273,6585,18201,0.060037572
1585084308,6620,18301,0.050820421
1585084344,6656,18401,0.061729345
1585084378,6690,18501,0.039964929
1585084414,6726,18601,0.049437627
1585084448,6760,18701,0.068547234
1585084482,6794,18801,0.053345002
1585084516,6828,18901,0.056445338
1585084550,6862,19001,0.030143509
1585084585,6897,19101,0.059350967
1585084620,6932,19201,0.053596888
1585084654,6966,19301,0.047013208
1585084688,7000,19401,0.045329213
1585084722,7034,19501,0.04043049
1585084757,7069,19601,0.034784511
1585084791,7103,19701,0.0527521
1585084826,7138,19801,0.048737478
1585084861,7173,19901,0.052339599
1585084915,7227,20001,0.062217921
1585084950,7262,20101,0.026026936
1585084984,7296,20201,0.050085753
1585085018,7330,20301,0.031718366
1585085053,7365,20401,0.031325337
1585085088,7400,20501,0.052309129
1585085123,7435,20601,0.044497721
1585085157,7469,20701,0.034362793
1585085192,7504,20801,0.059113223
1585085227,7539,20901,0.030364335
1585085262,7574,21001,0.050626025
1585085298,7610,21101,0.021356048
1585085335,7647,21201,0.062972799
1585085370,7682,21301,0.026137196
1585085405,7717,21401,0.038210407
1585085441,7753,21501,0.026454253
1585085476,7788,21601,0.028076623
1585085510,7822,21701,0.024404025
1585085549,7861,21801,0.08540801
1585085587,7899,21901,0.034439087
1585085640,7952,22001,0.064178467
1585085674,7986,22101,0.029985005
1585085708,8020,22201,0.05703453
1585085743,8055,22301,0.017554764
1585085780,8092,22401,0.044377919
1585085815,8127,22501,0.079642072
1585085850,8162,22601,0.045859739
1585085884,8196,22701,0.037953593
1585085919,8231,22801,0.040198527
1585085956,8268,22901,0.049016975
1585085991,8303,23001,0.053992592
1585086026,8338,23101,0.032720312
1585086061,8373,23201,0.043293133
1585086096,8408,23301,0.053740442
1585086131,8443,23401,0.033432178
1585086166,8478,23501,0.032694977
1585086202,8514,23601,0.047893196
1585086238,8550,23701,0.040791232
1585086273,8585,23801,0.031749304
1585086308,8620,23901,0.052853096
1585086362,8674,24001,0.046056554
1585086400,8712,24101,0.043703441
1585086434,8746,24201,0.025939863
1585086467,8779,24301,0.050822176
1585086503,8815,24401,0.044340409
1585086543,8855,24501,0.029256998
1585086582,8894,24601,0.030717352
1585086616,8928,24701,0.01713717
1585086650,8962,24801,0.04069104
1585086685,8997,24901,0.05950509
1585086724,9036,25001,0.021244528
1585086758,9070,25101,0.024550812
1585086794,9106,25201,0.03402824
1585086829,9141,25301,0.024895327
1585086863,9175,25401,0.058493283
1585086898,9210,25501,0.027571268
1585086933,9245,25601,0.071033537
1585086969,9281,25701,0.02921995
1585087006,9318,25801,0.025916606
1585087042,9354,25901,0.059866946
1585087096,9408,26001,0.035377551
1585087130,9442,26101,0.069216281
1585087165,9477,26201,0.053583212
1585087201,9513,26301,0.028636687
1585087236,9548,26401,0.046022005
1585087270,9582,26501,0.017548315
1585087305,9617,26601,0.053168762
1585087340,9652,26701,0.05250366
1585087375,9687,26801,0.050898179
1585087410,9722,26901,0.037598312
1585087446,9758,27001,0.032059956
1585087481,9793,27101,0.040518753
1585087517,9829,27201,0.060976651
1585087552,9864,27301,0.017419102
1585087586,9898,27401,0.039235458
1585087622,9934,27501,0.039196834
1585087659,9971,27601,0.049327094
1585087696,10008,27701,0.038588971
1585087732,10044,27801,0.043193683
1585087770,10082,27901,0.028274009
1585087825,10137,28001,0.032890581
1585087861,10173,28101,0.042420425
1585087896,10208,28201,0.019839946
1585087931,10243,28301,0.031508733
1585087966,10278,28401,0.06794104
1585088002,10314,28501,0.022367097
1585088038,10350,28601,0.035090469
1585088073,10385,28701,0.023794726
1585088108,10420,28801,0.035011481
1585088143,10455,28901,0.031467985
1585088179,10491,29001,0.036718488
1585088216,10528,29101,0.041600332
1585088252,10564,29201,0.023886412
1585088288,10600,29301,0.047966991
1585088326,10638,29401,0.018046066
1585088364,10676,29501,0.05950252
1585088401,10713,29601,0.029331218
1585088439,10751,29701,0.030588601
1585088476,10788,29801,0.030381106
1585088511,10823,29901,0.035410725
1585088564,10876,30001,0.109071568
1585088599,10911,30101,0.043666836
1585088634,10946,30201,0.029533975
1585088673,10985,30301,0.051411856
1585088711,11023,30401,0.054062515
1585088746,11058,30501,0.024479818
1585088780,11092,30601,0.036825813
1585088817,11129,30701,0.022602148
1585088852,11164,30801,0.040299732
1585088886,11198,30901,0.04428871
1585088922,11234,31001,0.028867828
1585088957,11269,31101,0.050099969
1585088992,11304,31201,0.036051296
1585089026,11338,31301,0.055103321
1585089060,11372,31401,0.069705307
1585089097,11409,31501,0.053956121
1585089133,11445,31601,0.027094478
1585089170,11482,31701,0.069691785
1585089207,11519,31801,0.019968536
1585089242,11554,31901,0.028966229
1585089293,11605,32001,0.024876557
1585089328,11640,32101,0.013024335
1585089364,11676,32201,0.00602854
1585089399,11711,32301,0.019103801
1585089435,11747,32401,0.010798957
1585089475,11787,32501,0.003167905
1585089510,11822,32601,0.005864335
1585089547,11859,32701,0.008797695
1585089588,11900,32801,0.002432984
1585089621,11933,32901,0.005229148
1585089654,11966,33001,0.002536526
1585089688,12000,33101,0.001243727
1585089722,12034,33201,0.002587576
1585089755,12067,33301,0.001234832
1585089788,12100,33401,0.001878734
1585089821,12133,33501,0.001787576
1585089855,12167,33601,0.00403527
1585089888,12200,33701,0.002017264
1585089922,12234,33801,0.001649192
1585089955,12267,33901,0.001332327
1585090008,12320,34001,0.001059862
1585090041,12353,34101,0.001911097
1585090075,12387,34201,0.00157935
1585090108,12420,34301,0.002687671
1585090142,12454,34401,0.001074523
1585090175,12487,34501,0.002302824
1585090208,12520,34601,0.001009087
1585090242,12554,34701,0.002134376
1585090278,12590,34801,0.002774982
1585090312,12624,34901,0.00141414
1585090346,12658,35001,0.001385766
1585090379,12691,35101,0.000662618
1585090412,12724,35201,0.002641602
1585090446,12758,35301,0.000709069
1585090479,12791,35401,0.001531676
1585090520,12832,35501,0.001358496
1585090555,12867,35601,0.002212887
1585090588,12900,35701,0.00066971
1585090621,12933,35801,0.000501412
1585090655,12967,35901,0.000843386
1585090706,13018,36001,0.001325493
1585090740,13052,36101,0.000589526
1585090773,13085,36201,0.001953773
1585090807,13119,36301,0.000603579
1585090841,13153,36401,0.001483885
1585090874,13186,36501,0.000585631
1585090907,13219,36601,0.000752069
1585090941,13253,36701,0.000520886
1585090975,13287,36801,0.000969557
1585091010,13322,36901,0.002571026
1585091044,13356,37001,0.000501761
1585091077,13389,37101,0.000635485
1585091112,13424,37201,0.001593736
1585091147,13459,37301,0.0026657
1585091180,13492,37401,0.000752058
1585091213,13525,37501,0.001115001
1585091252,13564,37601,0.001667608
1585091287,13599,37701,0.000778618
1585091320,13632,37801,0.001567242
1585091363,13675,37901,0.000464458
1585091415,13727,38001,0.000612284
1585091448,13760,38101,0.000904375
1585091481,13793,38201,0.000521873
1585091515,13827,38301,0.000622101
1585091548,13860,38401,0.000282177
1585091581,13893,38501,0.000309548
1585091615,13927,38601,0.000770125
1585091648,13960,38701,0.000449463
1585091683,13995,38801,0.000621279
1585091717,14029,38901,0.001846026
1585091751,14063,39001,0.001143873
1585091784,14096,39101,0.001033991
1585091817,14129,39201,0.0002365
1585091851,14163,39301,0.003475818
1585091886,14198,39401,0.00045347
1585091921,14233,39501,0.000696206
1585091958,14270,39601,0.000743899
1585091998,14310,39701,0.000505193
1585092034,14346,39801,0.002223736
1585092067,14379,39901,0.001989348
,,,
,,,
,,,
,,,
,,,
,,,
,,,
,,,
,,,
,,,
,,,
,,,
,,,
,,,
,,,
,,,
,,,
,,,
,,,
,,,
,,,
,,,
,,,
,,,
,,,
,,,
,,,
,,,
,,,
,,,
,,,
,,,
,,,
,,,
,,,
,,,
,,,
,,,
,,,
,,,
,,,
,,,
,,,
,,,
,,,
,,,
,,,
,,,
,,,
,,,
,,,
,,,
,,,
,,,
,,,
,,,
,,,
,,,
,,,
,,,
,,,
,,,
,,,
,,,
,,,
,,,
,,,
,,,
,,,
,,,
,,,
,,,
,,,
,,,
,,,
,,,
,,,
,,,
,,,
,,,
,,,
,,,
,,,
,,,
,,,
,,,
,,,
,,,
,,,
,,,
,,,
,,,
,,,
,,,
,,,
,,,
,,,
,,,
,,,
,,,
,,,
,,,
,,,
,,,
,,,
,,,
,,,
,,,
,,,
,,,
,,,
,,,
,,,
,,,
,,,
,,,
,,,
,,,
,,,
,,,
,,,
,,,
,,,
,,,
,,,
,,,
,,,
,,,
,,,
,,,
,,,
,,,
,,,
,,,
,,,
,,,
,,,
,,,
,,,
,,,
,,,
,,,
,,,
,,,
,,,
,,,
,,,
,,,
,,,
,,,
,,,
,,,
,,,
,,,
,,,
,,,
,,,
,,,
,,,
,,,
,,,
,,,
,,,
,,,
,,,
,,,
,,,
,,,
,,,
,,,
,,,
,,,
,,,
,,,
,,,
,,,
,,,
,,,
,,,
,,,
,,,
,,,
,,,
,,,
,,,
,,,
,,,
,,,
,,,
,,,
,,,
,,,
,,,
,,,
,,,
,,,
,,,
,,,
,,,
,,,
,,,
,,,
,,,
,,,
,,,
,,,
,,,
,,,
,,,
,,,
,,,
,,,
,,,
,,,
,,,
,,,
,,,
,,,
,,,
,,,
,,,
,,,
,,,
,,,
,,,
,,,
,,,
,,,
,,,
,,,
,,,
,,,
,,,
,,,
,,,
,,,
,,,
,,,
,,,
,,,
,,,
,,,
,,,
,,,
,,,
,,,
,,,
,,,
,,,
,,,
,,,
,,,
,,,
,,,
,,,
,,,
,,,
,,,
,,,
,,,
,,,
,,,
,,,
,,,
,,,
,,,
,,,
,,,
,,,
,,,
,,,
,,,
,,,
,,,
,,,
,,,
,,,
,,,
,,,
,,,
,,,
,,,
,,,
,,,
,,,
,,,
,,,
,,,
,,,
,,,
,,,
,,,
,,,
,,,
,,,
,,,
,,,
,,,
,,,
,,,
,,,
,,,
,,,
,,,
,,,
,,,
,,,
,,,
,,,
,,,
,,,
,,,
,,,
,,,
,,,
,,,
,,,
,,,
,,,
,,,
,,,
,,,
,,,
,,,
,,,
,,,
,,,
,,,
,,,
,,,
,,,
,,,
,,,
,,,
,,,
,,,
,,,
,,,
,,,
,,,
,,,
,,,
,,,
,,,
,,,
,,,
,,,
,,,
,,,
,,,
,,,
,,,
,,,
,,,
,,,
,,,
,,,
,,,
,,,
,,,
,,,
,,,
,,,
,,,
,,,
,,,
,,,
,,,
,,,
,,,
,,,
,,,
,,,
,,,
,,,
,,,
,,,
,,,
,,,
,,,
,,,
,,,
,,,
,,,
,,,
,,,
,,,
,,,
,,,
,,,
,,,
,,,
,,,
,,,
,,,
,,,
,,,
,,,
,,,
,,,
,,,
,,,
,,,
,,,
,,,
,,,
,,,
,,,
,,,
,,,
,,,
,,,
,,,
,,,
,,,
,,,
,,,
,,,
,,,
,,,
,,,
,,,
,,,
,,,
,,,
,,,
,,,
,,,
,,,
,,,
,,,
,,,
,,,
,,,
,,,
,,,
,,,
,,,
,,,
,,,
,,,
,,,
,,,
,,,
,,,
,,,
,,,
,,,
,,,
,,,
,,,
,,,
,,,
,,,
,,,
,,,
,,,
,,,
,,,
,,,
,,,
,,,
,,,
,,,
,,,
,,,
,,,
,,,
,,,
,,,
,,,
,,,
,,,
,,,
,,,
,,,
,,,
,,,
,,,
,,,
,,,
,,,
,,,
,,,
,,,
,,,
,,,
,,,
,,,
,,,
,,,
,,,
,,,
,,,
,,,
,,,
,,,
,,,
,,,
,,,
,,,
,,,
,,,
,,,
,,,
,,,
,,,
,,,
,,,
,,,
,,,
,,,
,,,
,,,
,,,
,,,
,,,
,,,
,,,
,,,
,,,
,,,
,,,
,,,
,,,
,,,
,,,
,,,
,,,
,,,
,,,
,,,
,,,
,,,
,,,
,,,
,,,
,,,
,,,
,,,
,,,
,,,
,,,
,,,
,,,
,,,
,,,
,,,
,,,
,,,
,,,
,,,
,,,
,,,
,,,
,,,
,,,
,,,
,,,
,,,
,,,
,,,
,,,
,,,
,,,
,,,
,,,
,,,
,,,
,,,
,,,
,,,
,,,
,,,
,,,
,,,
,,,
,,,
,,,
,,,
,,,
,,,
,,,
,,,
,,,
,,,
,,,
,,,
,,,
,,,
,,,
,,,
,,,
,,,
,,,
,,,
,,,
,,,