Wall time,Relative time (s),Step,Value,Norm value
1586960155,0,1,3.144676208,1
1586960226,71,101,2.068503857,0.6577796
1586960292,137,201,1.51057744,0.480360247
1586960359,204,301,1.207670331,0.384036463
1586960425,270,401,0.821131706,0.261118047
1586960492,337,501,0.678377032,0.215722378
1586960559,404,601,0.502520919,0.159800528
1586960625,470,701,0.393462777,0.125120284
1586960692,537,801,0.331505835,0.105418116
1586960758,603,901,0.291316062,0.092637855
1586960833,678,1001,0.238933355,0.075980271
1586960899,744,1101,0.220464915,0.070107351
1586960966,811,1201,0.164021224,0.052158381
1586961033,878,1301,0.159840807,0.05082902
1586961099,944,1401,0.126691416,0.040287588
1586961166,1011,1501,0.096752688,0.030767139
1586961233,1078,1601,0.104414701,0.033203641
1586961299,1144,1701,0.082036003,0.026087264
1586961366,1211,1801,0.116566136,0.037067772
1586961433,1278,1901,0.090740331,0.028855222
1586961510,1355,2001,0.068448916,0.021766603
1586961578,1423,2101,0.071785316,0.022827571
1586961644,1489,2201,0.065315664,0.020770234
1586961711,1556,2301,0.075261585,0.023933017
1586961778,1623,2401,0.053229131,0.016926744
1586961844,1689,2501,0.048109576,0.015298739
1586961911,1756,2601,0.058781344,0.018692335
1586961978,1823,2701,0.060168885,0.019133569
1586962045,1890,2801,0.057865292,0.018401033
1586962111,1956,2901,0.058460899,0.018590435
1586962187,2032,3001,0.05836533,0.018560044
1586962254,2099,3101,0.046895452,0.014912648
1586962321,2166,3201,0.058518939,0.018608892
1586962387,2232,3301,0.049426571,0.015717539
1586962454,2299,3401,0.047184296,0.015004502
1586962520,2365,3501,0.049738944,0.015816872
1586962587,2432,3601,0.045069635,0.014332042
1586962654,2499,3701,0.052668106,0.016748341
1586962721,2566,3801,0.062559359,0.019893737
1586962787,2632,3901,0.062505975,0.019876762
1586962863,2708,4001,0.038809806,0.012341433
1586962930,2775,4101,0.036016565,0.011453186
1586962997,2842,4201,0.040741965,0.012955855
1586963064,2909,4301,0.035869751,0.0114065
1586963130,2975,4401,0.037355792,0.011879058
1586963197,3042,4501,0.040604465,0.012912127
1586963264,3109,4601,0.036447491,0.01159022
1586963330,3175,4701,0.049039643,0.015594496
1586963397,3242,4801,0.048781544,0.015512421
1586963464,3309,4901,0.025153238,0.007998674
1586963538,3383,5001,0.04565607,0.014518528
1586963605,3450,5101,0.028111968,0.008939544
1586963672,3517,5201,0.030724868,0.00977044
1586963738,3583,5301,0.040169407,0.012773783
1586963805,3650,5401,0.020047475,0.006375051
1586963871,3716,5501,0.029315721,0.009322333
1586963938,3783,5601,0.039064839,0.012422532
1586964005,3850,5701,0.041067809,0.013059472
1586964071,3916,5801,0.038965754,0.012391021
1586964138,3983,5901,0.029406177,0.009351099
1586964213,4058,6001,0.028613485,0.009099026
1586964280,4125,6101,0.034900408,0.011098252
1586964346,4191,6201,0.041731179,0.013270422
1586964413,4258,6301,0.035514783,0.011293621
1586964479,4324,6401,0.022474103,0.007146714
1586964546,4391,6501,0.023088172,0.007341986
1586964613,4458,6601,0.040327765,0.012824141
1586964679,4524,6701,0.021888925,0.006960628
1586964746,4591,6801,0.035494506,0.011287175
1586964812,4657,6901,0.022915699,0.007287141
1586964886,4731,7001,0.040614385,0.012915285
1586964953,4798,7101,0.028211407,0.008971165
1586965019,4864,7201,0.039843921,0.012670277
1586965086,4931,7301,0.027908957,0.008874987
1586965152,4997,7401,0.014987285,0.004765925
1586965219,5064,7501,0.028474411,0.009054799
1586965286,5131,7601,0.035987135,0.01144383
1586965352,5197,7701,0.033881024,0.010774089
1586965419,5264,7801,0.029460978,0.009368526
1586965485,5330,7901,0.040569998,0.012901169
1586965560,5405,8001,0.028116705,0.008941048
1586965627,5472,8101,0.022440314,0.007135968
1586965694,5539,8201,0.025997844,0.008267255
1586965760,5605,8301,0.041721776,0.013267433
1586965827,5672,8401,0.050464183,0.016047496
1586965894,5739,8501,0.020218963,0.006429584
1586965960,5805,8601,0.034826428,0.011074727
1586966027,5872,8701,0.036775537,0.011694539
1586966094,5939,8801,0.025977712,0.008260854
1586966161,6006,8901,0.020777684,0.006607256
1586966235,6080,9001,0.026088508,0.008296088
1586966302,6147,9101,0.026021184,0.008274677
1586966369,6214,9201,0.028217219,0.008973013
1586966436,6281,9301,0.020543661,0.006532838
1586966503,6348,9401,0.029912304,0.009512044
1586966570,6415,9501,0.030388907,0.009663605
1586966637,6482,9601,0.03058923,0.009727307
1586966703,6548,9701,0.032045368,0.010190356
1586966771,6616,9801,0.022766136,0.007239582
1586966837,6682,9901,0.035056621,0.011147927
1586966911,6756,10001,0.028165298,0.008956502
1586966978,6823,10101,0.03073971,0.009775159
1586967046,6891,10201,0.03367801,0.010709532
1586967112,6957,10301,0.020400777,0.006487402
1586967179,7024,10401,0.030519703,0.009705196
1586967246,7091,10501,0.022361368,0.007110866
1586967313,7158,10601,0.035756525,0.011370493
1586967380,7225,10701,0.02690484,0.008555679
1586967446,7291,10801,0.024880057,0.007911803
1586967513,7358,10901,0.021709032,0.006903423
1586967590,7435,11001,0.031340025,0.009966059
1586967657,7502,11101,0.038385749,0.012206583
1586967724,7569,11201,0.038872167,0.012361263
1586967791,7636,11301,0.025939174,0.008248598
1586967858,7703,11401,0.021376707,0.006797746
1586967924,7769,11501,0.024239536,0.007708119
1586967991,7836,11601,0.026490401,0.008423888
1586968058,7903,11701,0.025120107,0.007988139
1586968126,7971,11801,0.024028111,0.007640885
1586968192,8037,11901,0.03789942,0.012051931
1586968267,8112,12001,0.020676244,0.006574998
1586968334,8179,12101,0.039717238,0.012629993
1586968401,8246,12201,0.023683235,0.007531217
1586968468,8313,12301,0.034289338,0.010903933
1586968535,8380,12401,0.033397332,0.010620276
1586968602,8447,12501,0.028117299,0.008941239
1586968669,8514,12601,0.032440461,0.010315994
1586968736,8581,12701,0.01703807,0.005418068
1586968803,8648,12801,0.024369488,0.007749443
1586968870,8715,12901,0.022769127,0.007240532
1586968943,8788,13001,0.022713926,0.007222979
1586969010,8855,13101,0.01423998,0.004528282
1586969077,8922,13201,0.019501828,0.006201538
1586969144,8989,13301,0.014717534,0.004680142
1586969211,9056,13401,0.029506238,0.009382918
1586969277,9122,13501,0.031702384,0.010081286
1586969344,9189,13601,0.027687889,0.008804687
1586969411,9256,13701,0.025827147,0.008212976
1586969478,9323,13801,0.031690426,0.010077486
1586969545,9390,13901,0.025803182,0.008205354
1586969623,9468,14001,0.024290293,0.007724258
1586969690,9535,14101,0.022259073,0.007078334
1586969757,9602,14201,0.01946196,0.00618886
1586969823,9668,14301,0.021571342,0.006859638
1586969891,9736,14401,0.027515871,0.008749985
1586969957,9802,14501,0.026755298,0.008508126
1586970024,9869,14601,0.03259927,0.010366495
1586970091,9936,14701,0.026002895,0.008268864
1586970158,10003,14801,0.018867731,0.005999896
1586970225,10070,14901,0.030902673,0.00982698
1586970302,10147,15001,0.029693503,0.009442467
1586970369,10214,15101,0.017183306,0.005464254
1586970436,10281,15201,0.021947399,0.006979224
1586970503,10348,15301,0.02445926,0.00777799
1586970570,10415,15401,0.027898895,0.008871785
1586970636,10481,15501,0.021937517,0.006976082
1586970703,10548,15601,0.023265507,0.00739838
1586970770,10615,15701,0.021615082,0.006873547
1586970837,10682,15801,0.025255958,0.008031339
1586970904,10749,15901,0.02180697,0.006934568
1586970979,10824,16001,0.026178852,0.008324816
1586971046,10891,16101,0.020170648,0.006414222
1586971113,10958,16201,0.023278855,0.007402622
1586971179,11024,16301,0.024756918,0.007872645
1586971246,11091,16401,0.033010185,0.010497163
1586971313,11158,16501,0.021602686,0.006869607
1586971380,11225,16601,0.025656294,0.008158643
1586971447,11292,16701,0.030562276,0.009718737
1586971514,11359,16801,0.026925936,0.008562389
1586971580,11425,16901,0.028423784,0.009038698
1586971655,11500,17001,0.026761446,0.008510081
1586971722,11567,17101,0.027260285,0.008668708
1586971790,11635,17201,0.020956803,0.006664216
1586971856,11701,17301,0.022137113,0.007039551
1586971923,11768,17401,0.018118335,0.005761588
1586971990,11835,17501,0.020767897,0.006604146
1586972057,11902,17601,0.024156645,0.007681757
1586972123,11968,17701,0.02096254,0.006666041
1586972190,12035,17801,0.019013561,0.00604627
1586972256,12101,17901,0.022367518,0.007112821
1586972333,12178,18001,0.014038859,0.004464326