Wall time,Relative time (s),Step,Value,Norm value
1586813241,0,1,3.869208336,1
1586813314,73,101,2.676594734,0.691768056
1586813381,140,201,2.054510117,0.530989789
1586813447,206,301,1.80237627,0.465825593
1586813514,273,401,1.598962069,0.41325303
1586813580,339,501,1.367323875,0.353385954
1586813647,406,601,1.160109043,0.299831112
1586813713,472,701,0.991027653,0.256131891
1586813780,539,801,0.74829793,0.1933982
1586813846,605,901,0.641109586,0.165695288
1586813921,680,1001,0.565910816,0.146260106
1586813987,746,1101,0.499065816,0.128983962
1586814054,813,1201,0.445939869,0.115253517
1586814120,879,1301,0.366591632,0.094745901
1586814188,947,1401,0.347989738,0.089938228
1586814254,1013,1501,0.297677159,0.076934901
1586814321,1080,1601,0.241028398,0.062293983
1586814388,1147,1701,0.237255603,0.0613189
1586814455,1214,1801,0.239595786,0.061923724
1586814522,1281,1901,0.169048443,0.043690705
1586814595,1354,2001,0.146420658,0.037842537
1586814663,1422,2101,0.142723262,0.036886941
1586814730,1489,2201,0.153445482,0.039658107
1586814796,1555,2301,0.115374476,0.029818627
1586814863,1622,2401,0.097690672,0.025248232
1586814930,1689,2501,0.10313911,0.026656386
1586814997,1756,2601,0.077859193,0.02012277
1586815063,1822,2701,0.080771253,0.020875394
1586815129,1888,2801,0.093861535,0.02425859
1586815196,1955,2901,0.073212147,0.018921739
1586815270,2029,3001,0.056477398,0.014596629
1586815336,2095,3101,0.053313624,0.013778948
1586815403,2162,3201,0.070590377,0.01824414
1586815469,2228,3301,0.057933211,0.014972885
1586815536,2295,3401,0.049658358,0.012834243
1586815603,2362,3501,0.046995293,0.01214597
1586815669,2428,3601,0.089998558,0.0232602
1586815736,2495,3701,0.036061995,0.00932025
1586815803,2562,3801,0.047560677,0.012292096
1586815869,2628,3901,0.044682033,0.011548107
1586815945,2704,4001,0.040062428,0.010354167
1586816012,2771,4101,0.039703168,0.010261316
1586816078,2837,4201,0.041247614,0.010660478
1586816145,2904,4301,0.0383007,0.009898847
1586816212,2971,4401,0.026304299,0.006798367
1586816278,3037,4501,0.049807668,0.012872832
1586816345,3104,4601,0.03674145,0.009495857
1586816411,3170,4701,0.02530661,0.006540514
1586816478,3237,4801,0.035568211,0.009192632
1586816544,3303,4901,0.024080537,0.006223635
1586816619,3378,5001,0.027119687,0.007009106
1586816686,3445,5101,0.020306451,0.005248218
1586816752,3511,5201,0.019537784,0.005049555
1586816819,3578,5301,0.023857955,0.006166106
1586816886,3645,5401,0.021207666,0.005481139
1586816952,3711,5501,0.029792525,0.007699901
1586817019,3778,5601,0.022943445,0.00592975
1586817085,3844,5701,0.029159289,0.007536242
1586817152,3911,5801,0.020215154,0.005224622
1586817219,3978,5901,0.028191997,0.007286245
1586817292,4051,6001,0.024067663,0.006220306
1586817359,4118,6101,0.013556596,0.003503714
1586817426,4185,6201,0.0156436,0.004043101
1586817492,4251,6301,0.021604637,0.005583737
1586817559,4318,6401,0.025255624,0.006527335
1586817625,4384,6501,0.024377402,0.006300359
1586817692,4451,6601,0.017127069,0.004426505
1586817759,4518,6701,0.016060468,0.004150841
1586817826,4585,6801,0.014912005,0.003854018
1586817892,4651,6901,0.017498191,0.004522421
1586817966,4725,7001,0.021842653,0.00564525
1586818033,4792,7101,0.019520916,0.005045197
1586818100,4859,7201,0.01689487,0.004366493
1586818167,4926,7301,0.018344805,0.004741228
1586818234,4993,7401,0.019161675,0.004952352
1586818300,5059,7501,0.021313515,0.005508494
1586818367,5126,7601,0.016611608,0.004293284
1586818434,5193,7701,0.015068749,0.003894531
1586818501,5260,7801,0.014130127,0.003651943
1586818567,5326,7901,0.021104317,0.005454428
1586818641,5400,8001,0.021954432,0.00567414
1586818708,5467,8101,0.016671408,0.004308739
1586818775,5534,8201,0.017827861,0.004607625
1586818842,5601,8301,0.021884702,0.005656118
1586818909,5668,8401,0.016377512,0.004232781
1586818975,5734,8501,0.023284048,0.006017781
1586819042,5801,8601,0.020327071,0.005253548
1586819108,5867,8701,0.019247841,0.00497462
1586819175,5934,8801,0.0193065,0.00498978
1586819242,6001,8901,0.020483844,0.005294065
1586819320,6079,9001,0.016580774,0.004285313
1586819387,6146,9101,0.032647889,0.008437873
1586819454,6213,9201,0.012057288,0.003116216
1586819520,6279,9301,0.016198728,0.004186575
1586819587,6346,9401,0.013478354,0.00348349
1586819654,6413,9501,0.011313336,0.002923942
1586819721,6480,9601,0.010921054,0.002822554
1586819787,6546,9701,0.016446739,0.004250673
1586819854,6613,9801,0.009950094,0.002571609
1586819921,6680,9901,0.018922977,0.004890659
1586819996,6755,10001,0.03042518,0.007863412
1586820063,6822,10101,0.022029204,0.005693464
1586820130,6889,10201,0.018178895,0.004698351
1586820196,6955,10301,0.013535041,0.003498142
1586820263,7022,10401,0.01717638,0.004439249
1586820329,7088,10501,0.019117935,0.004941044
1586820396,7155,10601,0.015462072,0.003996184
1586820463,7222,10701,0.013694864,0.003539448
1586820529,7288,10801,0.014800156,0.003825113
1586820596,7355,10901,0.018812191,0.004862026
1586820670,7429,11001,0.025006732,0.006463009
1586820737,7496,11101,0.019676715,0.005085464
1586820804,7563,11201,0.017414358,0.004500755
1586820871,7630,11301,0.014012136,0.003621449
1586820938,7697,11401,0.010957158,0.002831887
1586821005,7764,11501,0.012848288,0.003320651
1586821072,7831,11601,0.021660931,0.005598285
1586821139,7898,11701,0.011867054,0.003067049
1586821206,7965,11801,0.015121244,0.003908097
1586821273,8032,11901,0.016014211,0.004138885
1586821346,8105,12001,0.009072259,0.002344733
1586821414,8173,12101,0.008129976,0.0021012
1586821481,8240,12201,0.012320265,0.003184184
1586821547,8306,12301,0.011448348,0.002958835
1586821614,8373,12401,0.016921245,0.004373308
1586821681,8440,12501,0.018818196,0.004863579
1586821748,8507,12601,0.023857912,0.006166096
1586821815,8574,12701,0.015872266,0.004102201
1586821882,8641,12801,0.025753208,0.006655938
1586821948,8707,12901,0.016117472,0.004165573
1586822021,8780,13001,0.020545427,0.005309983
1586822087,8846,13101,0.020059578,0.005184415
1586822154,8913,13201,0.016256198,0.004201428
1586822220,8979,13301,0.015406042,0.003981703
1586822286,9045,13401,0.018469609,0.004773486
1586822352,9111,13501,0.018246269,0.004715763
1586822419,9178,13601,0.013119707,0.0033908
1586822485,9244,13701,0.013999635,0.003618218
1586822552,9311,13801,0.019311503,0.004991073
1586822618,9377,13901,0.019748766,0.005104085
1586822692,9451,14001,0.02172053,0.005613688
1586822758,9517,14101,0.016025104,0.0041417
1586822825,9584,14201,0.016393516,0.004236918
1586822891,9650,14301,0.021674147,0.005601701
1586822957,9716,14401,0.009832248,0.002541153
1586823023,9782,14501,0.013292852,0.003435548
1586823090,9849,14601,0.021089921,0.005450707
1586823156,9915,14701,0.024729282,0.006391302
1586823223,9982,14801,0.01244784,0.003217154
1586823289,10048,14901,0.014106257,0.003645774
1586823365,10124,15001,0.014776645,0.003819037
1586823432,10191,15101,0.021895628,0.005658943
1586823499,10258,15201,0.014812162,0.003828215
1586823565,10324,15301,0.019138671,0.004946405
1586823632,10391,15401,0.013529356,0.003496674
1586823699,10458,15501,0.011375624,0.002940038
1586823766,10525,15601,0.019441498,0.005024671
1586823832,10591,15701,0.018301358,0.004730001
1586823899,10658,15801,0.015235089,0.003937521
1586823966,10725,15901,0.013469839,0.003481291
1586824042,10801,16001,0.017717637,0.004579138
1586824109,10868,16101,0.014972985,0.003869779
1586824176,10935,16201,0.013397891,0.003462695
1586824242,11001,16301,0.010900532,0.002817251
1586824310,11069,16401,0.019920623,0.0051485
1586824376,11135,16501,0.01987098,0.005135671
1586824444,11203,16601,0.014572242,0.003766207
1586824510,11269,16701,0.017591439,0.004546522
1586824577,11336,16801,0.01968731,0.005088201
1586824644,11403,16901,0.010175426,0.002629848
1586824718,11477,17001,0.030629599,0.007916245
1586824785,11544,17101,0.015269475,0.003946409
1586824852,11611,17201,0.008878553,0.002294668
1586824918,11677,17301,0.020451054,0.00528559
1586824985,11744,17401,0.014247946,0.003682394
1586825051,11810,17501,0.01991404,0.0051468
1586825117,11876,17601,0.014286034,0.003692236
1586825184,11943,17701,0.018655624,0.00482156
1586825250,12009,17801,0.017835174,0.004609514
1586825316,12075,17901,0.015628204,0.004039121
1586825392,12151,18001,0.012640405,0.003266924
1586825458,12217,18101,0.016196515,0.004186004
1586825525,12284,18201,0.016527561,0.004271561
1586825591,12350,18301,0.023713892,0.006128874
1586825658,12417,18401,0.018702114,0.004833575
1586825724,12483,18501,0.010200492,0.002636325
1586825790,12549,18601,0.007386274,0.001908987
1586825857,12616,18701,0.010075608,0.002604049
1586825924,12683,18801,0.0155928,0.004029972
1586825991,12750,18901,0.019469447,0.005031895
1586826066,12825,19001,0.012218086,0.003157775
1586826133,12892,19101,0.014187414,0.003666747
1586826201,12960,19201,0.013852613,0.003580218
1586826267,13026,19301,0.016826998,0.004348952
1586826335,13094,19401,0.02019429,0.00521923
1586826401,13160,19501,0.02458903,0.006355055
1586826469,13228,19601,0.016393192,0.004236833
1586826535,13294,19701,0.014406154,0.003723281
1586826602,13361,19801,0.012074196,0.003120587
1586826669,13428,19901,0.010883868,0.002812945
1586826746,13505,20001,0.010419192,0.002692848
1586826813,13572,20101,0.014235089,0.00367907
1586826880,13639,20201,0.022261919,0.005753611
1586826946,13705,20301,0.02133245,0.005513389
1586827013,13772,20401,0.021396903,0.005530046
1586827080,13839,20501,0.012633143,0.003265045
1586827147,13906,20601,0.008249069,0.002131979
1586827214,13973,20701,0.012548059,0.003243056
1586827281,14040,20801,0.009346235,0.002415541
1586827347,14106,20901,0.019873843,0.00513641
1586827424,14183,21001,0.014738278,0.00380912
1586827491,14250,21101,0.010358801,0.00267724
1586827558,14317,21201,0.020526566,0.005305108
1586827625,14384,21301,0.01317366,0.003404743
1586827692,14451,21401,0.010428526,0.002695262
1586827758,14517,21501,0.012637574,0.00326619
1586827825,14584,21601,0.013329228,0.00344495
1586827892,14651,21701,0.01765921,0.004564037
1586827959,14718,21801,0.008650006,0.002235602
1586828026,14785,21901,0.014446775,0.003733782
1586828102,14861,22001,0.011148321,0.002881292
1586828169,14928,22101,0.01171789,0.003028498
1586828236,14995,22201,0.012493343,0.003228914
1586828303,15062,22301,0.010126458,0.002617192
1586828370,15129,22401,0.015433013,0.003988674
1586828436,15195,22501,0.009428951,0.00243692
1586828503,15262,22601,0.011360536,0.002936141
1586828570,15329,22701,0.011574659,0.00299148
1586828637,15396,22801,0.016167752,0.004178568
1586828703,15462,22901,0.019335665,0.004997317
1586828782,15541,23001,0.013184428,0.003407527
1586828849,15608,23101,0.011178914,0.002889198
1586828915,15674,23201,0.015664903,0.004048606
1586828982,15741,23301,0.009029908,0.002333787
1586829049,15808,23401,0.012998452,0.00335946
1586829116,15875,23501,0.012345544,0.003190715
1586829182,15941,23601,0.010059915,0.002599994
1586829249,16008,23701,0.018549649,0.004794172
1586829316,16075,23801,0.013846956,0.003578758
1586829383,16142,23901,0.009347554,0.002415882
1586829458,16217,24001,0.025026467,0.006468111
1586829524,16283,24101,0.008956684,0.002314861
1586829591,16350,24201,0.017575359,0.004542366
1586829658,16417,24301,0.013720541,0.003546085
1586829725,16484,24401,0.010091641,0.002608192
1586829791,16550,24501,0.006512464,0.001683151
1586829858,16617,24601,0.006513763,0.001683486
1586829925,16684,24701,0.009082859,0.002347472
1586829991,16750,24801,0.013753168,0.003554518
1586830058,16817,24901,0.012998975,0.003359594
1586830133,16892,25001,0.01468334,0.003794921
1586830199,16958,25101,0.023946337,0.006188951
1586830266,17025,25201,0.019254042,0.004976222
1586830333,17092,25301,0.012458686,0.003219958
1586830400,17159,25401,0.01151454,0.002975942
1586830466,17225,25501,0.013502903,0.003489835
1586830533,17292,25601,0.01287042,0.00332637
1586830600,17359,25701,0.012758672,0.003297488
1586830667,17426,25801,0.015824134,0.004089759
1586830733,17492,25901,0.011755721,0.003038275
1586830807,17566,26001,0.01642973,0.004246277
1586830874,17633,26101,0.012924505,0.00334035
1586830941,17700,26201,0.019660994,0.005081399
1586831008,17767,26301,0.017158387,0.0044346
1586831074,17833,26401,0.008127693,0.002100608
1586831141,17900,26501,0.014988224,0.003873717
1586831208,17967,26601,0.01149898,0.002971921
1586831274,18033,26701,0.009469416,0.002447379
1586831341,18100,26801,0.012380213,0.003199675
1586831407,18166,26901,0.012605663,0.003257943
1586831481,18240,27001,0.007719365,0.001995077
1586831548,18307,27101,0.012927825,0.003341205
1586831614,18373,27201,0.015536547,0.004015434
1586831680,18439,27301,0.010462833,0.002704127
1586831747,18506,27401,0.011335079,0.002929561
1586831813,18572,27501,0.01929244,0.004986147
1586831880,18639,27601,0.018641561,0.004817926
1586831946,18705,27701,0.017169226,0.004437401
1586832013,18772,27801,0.011160485,0.002884438
1586832079,18838,27901,0.015546159,0.004017918
1586832158,18917,28001,0.018577497,0.00480137
1586832225,18984,28101,0.011990491,0.003098952
1586832291,19050,28201,0.010669225,0.002757468
1586832358,19117,28301,0.015909221,0.004111751
1586832424,19183,28401,0.01596063,0.004125038
1586832490,19249,28501,0.012224216,0.003159359
1586832557,19316,28601,0.011492036,0.002970127
1586832623,19382,28701,0.018056657,0.004666758
1586832690,19449,28801,0.016898632,0.004367464
1586832756,19515,28901,0.009408145,0.002431544
1586832832,19591,29001,0.016076364,0.004154948
1586832898,19657,29101,0.012276289,0.003172817
1586832965,19724,29201,0.01225945,0.003168465
1586833031,19790,29301,0.017123433,0.004425564
1586833098,19857,29401,0.013931992,0.003600734
1586833164,19923,29501,0.009417249,0.002433896
1586833230,19989,29601,0.014500089,0.00374756
1586833296,20055,29701,0.020187907,0.005217582
1586833363,20122,29801,0.020822849,0.005381682
1586833429,20188,29901,0.011468954,0.002964159
1586833503,20262,30001,0.011371725,0.002939033
1586833569,20328,30101,0.013450958,0.003476411
1586833636,20395,30201,0.00973673,0.002516466
1586833702,20461,30301,0.012749977,0.003295243
1586833769,20528,30401,0.005485468,0.001417724
1586833835,20594,30501,0.008640821,0.002233227
1586833901,20660,30601,0.006665117,0.001722606
1586833967,20726,30701,0.014695667,0.003798108
1586834034,20793,30801,0.009541386,0.00246598
1586834100,20859,30901,0.014305994,0.003697395
1586834175,20934,31001,0.010689073,0.002762599
1586834241,21000,31101,0.012607099,0.003258315
1586834308,21067,31201,0.008927125,0.002307221
1586834374,21133,31301,0.008815348,0.002278334
1586834440,21199,31401,0.013974473,0.003611713
1586834506,21265,31501,0.013100453,0.003385822
1586834573,21332,31601,0.008628748,0.002230107
1586834639,21398,31701,0.007298634,0.001886337
1586834706,21465,31801,0.011640006,0.00300837
1586834772,21531,31901,0.01763577,0.004557979
1586834847,21606,32001,0.014318679,0.003700674
1586834914,21673,32101,0.002847843,0.000736027
1586834981,21740,32201,0.002934152,0.000758333
1586835047,21806,32301,0.00220359,0.00056952
1586835114,21873,32401,0.000860998,0.000222526
1586835180,21939,32501,0.000937239,0.00024223
1586835246,22005,32601,0.000732804,0.000189393
1586835313,22072,32701,0.000712711,0.0001842
1586835379,22138,32801,0.000651552,0.000168394
1586835445,22204,32901,0.00030863,7.97657E-05
1586835523,22282,33001,0.000495274,0.000128003
1586835590,22349,33101,0.000279451,7.22241E-05
1586835656,22415,33201,0.000526478,0.000136069
1586835723,22482,33301,0.000518352,0.000133968
1586835789,22548,33401,0.001105862,0.00028581
1586835856,22615,33501,0.000674966,0.000174447
1586835923,22682,33601,0.000470736,0.000121663
1586835989,22748,33701,0.00031735,8.20194E-05
1586836055,22814,33801,0.000312945,8.08796E-05
1586836121,22880,33901,0.000346466,8.95454E-05
1586836198,22957,34001,0.000323928,8.372E-05
1586836264,23023,34101,0.000297915,7.69951E-05
1586836331,23090,34201,0.000385022,9.95087E-05
1586836397,23156,34301,0.000234842,6.06946E-05
1586836464,23223,34401,0.000279541,7.22473E-05
1586836530,23289,34501,0.00030691,7.93211E-05
1586836597,23356,34601,0.000328899,8.50045E-05
1586836663,23422,34701,0.000359613,9.29415E-05
1586836730,23489,34801,0.000345895,8.93981E-05
1586836796,23555,34901,0.000269279,6.95956E-05
1586836871,23630,35001,0.000366658,9.47636E-05
1586836937,23696,35101,0.000359639,9.29492E-05
1586837004,23763,35201,0.000222754,5.75699E-05
1586837070,23829,35301,0.000243218,6.28604E-05
1586837137,23896,35401,0.000199796,5.16385E-05
1586837203,23962,35501,0.000334655,8.64931E-05
1586837270,24029,35601,0.00034752,8.98168E-05
1586837336,24095,35701,0.000261249,6.75203E-05
1586837402,24161,35801,0.000432031,0.000111659
1586837469,24228,35901,0.000190636,4.92711E-05
1586837543,24302,36001,0.000352276,9.1047E-05
1586837609,24368,36101,0.000171427,4.43062E-05
1586837676,24435,36201,0.000210692,5.4453E-05
1586837742,24501,36301,0.000167411,4.32672E-05
1586837809,24568,36401,0.000183859,4.75188E-05
1586837875,24634,36501,0.000175311,4.5309E-05
1586837942,24701,36601,0.000231035,5.97125E-05
1586838008,24767,36701,0.00029337,7.58217E-05
1586838075,24834,36801,0.000182764,4.72345E-05
1586838141,24900,36901,0.000173405,4.48154E-05
1586838215,24974,37001,0.000214991,5.55643E-05
1586838282,25041,37101,0.00029083,7.51652E-05
1586838348,25107,37201,0.000233296,6.02966E-05
1586838415,25174,37301,0.000130902,3.38312E-05
1586838481,25240,37401,0.000295678,7.64187E-05
1586838547,25306,37501,0.000248401,6.41992E-05
1586838614,25373,37601,0.000360714,9.32258E-05
1586838680,25439,37701,0.000181749,4.69734E-05
1586838747,25506,37801,0.000266375,6.88435E-05
1586838813,25572,37901,0.000292394,7.55684E-05
1586838889,25648,38001,0.000179822,4.64746E-05
1586838956,25715,38101,0.000208778,5.39594E-05
1586839023,25782,38201,0.000197705,5.10983E-05
1586839089,25848,38301,0.000238542,6.16509E-05
1586839156,25915,38401,0.000207349,5.35898E-05
1586839222,25981,38501,0.00019907,5.14498E-05
1586839288,26047,38601,0.000250858,6.4835E-05
1586839355,26114,38701,0.000260282,6.72696E-05
1586839421,26180,38801,0.000264599,6.83861E-05
1586839487,26246,38901,0.00017851,4.61361E-05
1586839563,26322,39001,0.000228026,5.89345E-05
1586839630,26389,39101,0.000216588,5.59779E-05
1586839696,26455,39201,0.000218379,5.64405E-05
1586839762,26521,39301,0.000174406,4.50764E-05
1586839829,26588,39401,0.000335887,8.6811E-05
1586839895,26654,39501,0.000247063,6.38529E-05
1586839962,26721,39601,0.000246708,6.37624E-05
1586840028,26787,39701,0.000176187,4.55364E-05
1586840094,26853,39801,0.000167272,4.32311E-05
1586840160,26919,39901,0.000204512,5.28558E-05